Time (ms),Distance (mm),Brake Position (%)
15180.0,59.42,88.03
15287.0,59.57,87.8
15394.0,59.7,87.57
15501.0,59.84,87.35
15608.0,59.95,87.18
15715.0,60.05,87.01
15822.0,60.14,86.87
15929.0,60.23,86.73
16036.0,60.34,86.55
16143.0,60.41,86.44
16250.0,60.51,86.28
16357.0,60.66,86.03
16464.0,60.79,85.83
16571.0,60.92,85.61
16678.0,61.06,85.39
16785.0,61.14,85.25
16892.0,61.23,85.11
16999.0,61.35,84.93
17106.0,61.41,84.82
17213.0,61.48,84.71
17320.0,61.59,84.53
17427.0,61.69,84.37
17534.0,61.77,84.25
17641.0,61.89,84.05
17748.0,61.96,83.93
17855.0,62.07,83.76
17962.0,62.13,83.67
18069.0,62.2,83.55
18176.0,62.27,83.44
18283.0,62.35,83.3
18390.0,62.42,83.19
18497.0,62.52,83.03
18604.0,62.57,82.95
18711.0,62.62,82.87
18818.0,62.67,82.79
18925.0,62.69,82.76
19032.0,62.74,82.68
19139.0,62.77,82.62
19246.0,62.84,82.52
19353.0,62.84,82.52
19460.0,62.88,82.44
19567.0,62.9,82.42
19674.0,62.95,82.34
19781.0,63.07,82.15
19888.0,63.09,82.11
19995.0,63.17,81.99
20102.0,63.25,81.85
20209.0,63.32,81.74
20316.0,63.36,81.67
20423.0,63.4,81.61
20530.0,63.5,81.45
20637.0,63.52,81.42
20744.0,63.6,81.29
20851.0,63.68,81.16
20958.0,63.7,81.13
21065.0,63.78,81.0
21172.0,63.83,80.92
21279.0,63.9,80.8
21386.0,63.92,80.77
21493.0,63.97,80.7
21600.0,64.04,80.58
21707.0,64.07,80.53
21814.0,64.08,80.51
21921.0,64.08,80.51
22028.0,64.11,80.47
22135.0,64.2,80.33
22242.0,64.24,80.26
22349.0,64.23,80.27
22456.0,64.26,80.22
22563.0,64.3,80.16
22670.0,64.34,80.09
22777.0,64.38,80.03
22884.0,64.42,79.97
22991.0,64.46,79.91
23098.0,64.51,79.82
23205.0,64.55,79.76
23312.0,64.55,79.75
23419.0,64.62,79.65
23526.0,64.67,79.57
23633.0,64.76,79.42
23740.0,64.83,79.31
23847.0,64.87,79.24
23954.0,64.87,79.24
24061.0,64.89,79.21
24168.0,64.94,79.13
24275.0,64.97,79.09
24382.0,64.98,79.06
24489.0,65.01,79.01
24596.0,65.06,78.94
24703.0,65.07,78.92
24810.0,65.11,78.85
24917.0,65.22,78.68
25024.0,65.3,78.55
25131.0,65.31,78.53
25238.0,65.32,78.51
25345.0,65.36,78.45
25452.0,65.39,78.41
25559.0,65.41,78.37
25666.0,65.39,78.41
25773.0,65.38,78.42
25880.0,65.41,78.38
25987.0,65.44,78.31
26094.0,65.5,78.23
26201.0,65.5,78.22
26308.0,65.51,78.21
26415.0,65.56,78.12
26522.0,65.61,78.04
26629.0,65.62,78.03
26736.0,65.61,78.05
26843.0,65.62,78.04
26950.0,65.62,78.03
27057.0,65.66,77.97
27164.0,65.69,77.92
27271.0,65.73,77.86
27378.0,65.76,77.81
27485.0,65.75,77.82
27592.0,65.78,77.77
27699.0,65.84,77.67
27806.0,65.86,77.64
27913.0,65.86,77.64
28020.0,65.91,77.57
28127.0,66.0,77.42
28234.0,65.97,77.47
28341.0,66.03,77.37
28448.0,66.04,77.35
28555.0,66.04,77.35
28662.0,66.1,77.26
28769.0,66.09,77.28
28876.0,66.11,77.24
28983.0,66.11,77.24
29090.0,66.14,77.19
29197.0,66.2,77.1
29304.0,66.22,77.06
29411.0,66.25,77.02
29518.0,66.26,77.0
29625.0,66.3,76.93
29732.0,66.3,76.94
29839.0,66.32,76.9
29946.0,66.32,76.91
30053.0,66.3,76.94
30160.0,66.29,76.95
30267.0,66.32,76.91
30374.0,66.33,76.89
30481.0,66.29,76.94
30588.0,66.32,76.9
30695.0,66.34,76.86
30802.0,66.35,76.85
30909.0,66.38,76.81
31016.0,66.4,76.77
31123.0,66.38,76.8
31230.0,66.38,76.81
31337.0,66.41,76.75
31444.0,66.36,76.83
31551.0,66.37,76.82
31658.0,66.35,76.85
31765.0,66.38,76.81
31872.0,66.33,76.89
31979.0,66.34,76.87
32086.0,66.35,76.86
32193.0,66.3,76.94
32300.0,66.29,76.95
32407.0,66.33,76.88
32514.0,66.34,76.87
32621.0,66.32,76.9
32728.0,66.29,76.95
32835.0,66.29,76.96
32942.0,66.25,77.01
33049.0,66.23,77.04
33156.0,66.23,77.05
33263.0,66.29,76.96
33370.0,66.28,76.97
33477.0,66.31,76.93
33584.0,66.32,76.91
33691.0,66.33,76.89
33798.0,66.35,76.85
33905.0,66.35,76.86
34012.0,66.33,76.89
34119.0,66.37,76.83
34226.0,66.39,76.79
34333.0,66.37,76.82
34440.0,66.44,76.71
34547.0,66.43,76.72
34654.0,66.44,76.71
34761.0,66.49,76.63
34868.0,66.5,76.61
34975.0,66.51,76.6
35082.0,66.5,76.61
35189.0,66.52,76.58
35296.0,66.53,76.57
35403.0,66.51,76.6
35510.0,66.54,76.54
35617.0,66.55,76.53
35724.0,66.53,76.57
35831.0,66.49,76.63
35938.0,66.51,76.59
36045.0,66.46,76.68
36152.0,66.47,76.66
36259.0,66.45,76.7
36366.0,66.45,76.69
36473.0,66.42,76.74
36580.0,66.4,76.78
36687.0,66.38,76.81
36794.0,66.39,76.8
36901.0,66.38,76.81
37008.0,66.4,76.77
37115.0,66.41,76.75
37222.0,66.42,76.74
37329.0,66.43,76.73
37436.0,66.44,76.71
37543.0,66.43,76.72
37650.0,66.41,76.76
37757.0,66.33,76.89
37864.0,66.33,76.89
37971.0,66.34,76.88
38078.0,66.33,76.89
38185.0,66.36,76.85
38292.0,66.41,76.76
38399.0,66.36,76.84
38506.0,66.44,76.71
38613.0,66.5,76.62
38720.0,66.59,76.47
38827.0,66.61,76.43
38934.0,66.6,76.45
39041.0,66.64,76.39
39148.0,66.61,76.43
39255.0,66.66,76.35
39362.0,66.71,76.27
39469.0,66.67,76.33
39576.0,66.68,76.33
39683.0,66.7,76.29
39790.0,66.69,76.31
39897.0,66.74,76.23
40004.0,66.73,76.25
40111.0,66.7,76.29
40218.0,66.7,76.28
40325.0,66.75,76.2
40432.0,66.8,76.13
40539.0,66.79,76.15
40646.0,66.78,76.16
40753.0,66.78,76.16
40860.0,66.75,76.2
40967.0,66.76,76.2
41074.0,66.76,76.19
41181.0,66.69,76.3
41288.0,66.65,76.37
41395.0,66.66,76.36
41502.0,66.68,76.33
41609.0,66.71,76.27
41716.0,66.7,76.29
41823.0,66.71,76.28
41930.0,66.68,76.32
42037.0,66.7,76.29
42144.0,66.72,76.26
42251.0,66.69,76.3
42358.0,66.68,76.32
42465.0,66.72,76.26
42572.0,66.72,76.26
42679.0,66.73,76.25
42786.0,66.71,76.27
42893.0,66.69,76.31
43000.0,66.66,76.35
43107.0,66.64,76.39
43214.0,66.65,76.38
43321.0,66.64,76.39
43428.0,66.64,76.39
43535.0,66.65,76.38
43642.0,66.59,76.46
43749.0,66.54,76.55
43856.0,66.52,76.59
43963.0,66.55,76.53
44070.0,66.6,76.44
44177.0,66.6,76.46
44284.0,66.59,76.47
44391.0,66.59,76.46
44498.0,66.61,76.43
44605.0,66.59,76.47
44712.0,66.58,76.48
44819.0,66.59,76.47
44926.0,66.58,76.49
45033.0,66.58,76.48
45140.0,66.61,76.44
45247.0,66.64,76.39
45354.0,66.65,76.38
45461.0,66.62,76.42
45568.0,66.6,76.45
45675.0,66.56,76.52
45782.0,66.51,76.6
45889.0,66.5,76.61
45996.0,66.51,76.6
46103.0,66.57,76.49
46210.0,66.54,76.56
46317.0,66.53,76.57
46424.0,66.49,76.63
46531.0,66.51,76.59
46638.0,66.52,76.58
46745.0,66.51,76.59
46852.0,66.55,76.53
46959.0,66.48,76.64
47066.0,66.49,76.63
47173.0,66.56,76.52
47280.0,66.5,76.61
47387.0,66.5,76.62
47494.0,66.47,76.66
47601.0,66.51,76.6
47708.0,66.5,76.61
47815.0,66.48,76.64
47922.0,66.47,76.65
48029.0,66.47,76.67
48136.0,66.49,76.63
48243.0,66.48,76.64
48350.0,66.5,76.61
48457.0,66.53,76.57
48564.0,66.55,76.53
48671.0,66.53,76.57
48778.0,66.55,76.54
48885.0,66.57,76.5
48992.0,66.63,76.4
49099.0,66.67,76.34
49206.0,66.64,76.38
49313.0,66.61,76.44
49420.0,66.6,76.46
49527.0,66.59,76.47
49634.0,66.51,76.6
49741.0,66.51,76.59
49848.0,66.55,76.53
49955.0,66.51,76.59
50062.0,66.49,76.63
50169.0,66.47,76.67
50276.0,66.46,76.68
50383.0,66.45,76.69
50490.0,66.4,76.77
50597.0,66.38,76.8
50704.0,66.38,76.81
50811.0,66.34,76.87
50918.0,66.4,76.78
51025.0,66.42,76.74
51132.0,66.44,76.71
51239.0,66.48,76.64
51346.0,66.49,76.63
51453.0,66.51,76.6
51560.0,66.52,76.58
51667.0,66.57,76.5
51774.0,66.55,76.54
51881.0,66.55,76.53
51988.0,66.56,76.52
52095.0,66.6,76.46
52202.0,66.57,76.5
52309.0,66.53,76.56
52416.0,66.54,76.55
52523.0,66.58,76.49
52630.0,66.6,76.46
52737.0,66.57,76.49
52844.0,66.6,76.46
52951.0,66.6,76.45
53058.0,66.56,76.51
53165.0,66.58,76.48
53272.0,66.6,76.44
53379.0,66.63,76.41
53486.0,66.59,76.47
53593.0,66.61,76.44
53700.0,66.61,76.43
53807.0,66.59,76.47
53914.0,66.63,76.41
54021.0,66.66,76.35
54128.0,66.64,76.39
54235.0,66.6,76.46
54342.0,66.63,76.4
54449.0,66.62,76.41
54556.0,66.64,76.38
54663.0,66.62,76.42
54770.0,66.62,76.41
54877.0,66.6,76.45
54984.0,66.64,76.39
55091.0,66.66,76.36
55198.0,66.66,76.35
55305.0,66.67,76.34
55412.0,66.67,76.34
55519.0,66.65,76.38
55626.0,66.61,76.44
55733.0,66.63,76.41
55840.0,66.65,76.37
55947.0,66.67,76.34
56054.0,66.64,76.38
56161.0,66.62,76.42
56268.0,66.68,76.32
56375.0,66.67,76.33
56482.0,66.69,76.3
56589.0,66.71,76.27
56696.0,66.67,76.33
56803.0,66.66,76.35
56910.0,66.71,76.27
57017.0,66.7,76.29
57124.0,66.71,76.28
57231.0,66.73,76.25
57338.0,66.74,76.22
57445.0,66.76,76.19
57552.0,66.8,76.14
57659.0,66.8,76.13
57766.0,66.82,76.1
57873.0,66.85,76.05
57980.0,66.9,75.98
58087.0,66.93,75.93
58194.0,66.94,75.9
58301.0,66.94,75.9
58408.0,66.93,75.92
58515.0,66.95,75.9
58622.0,66.92,75.94
58729.0,66.93,75.92
58836.0,66.9,75.96
58943.0,66.92,75.94
59050.0,66.95,75.89
59157.0,66.97,75.86
59264.0,66.94,75.91
59371.0,66.92,75.93
59478.0,66.95,75.88
59585.0,66.95,75.88
59692.0,66.98,75.83
59799.0,66.96,75.88
59906.0,66.91,75.95
60013.0,66.94,75.9
60120.0,66.88,75.99
60227.0,66.87,76.01
60334.0,66.87,76.01
60441.0,66.88,76.01
60548.0,66.94,75.91
60655.0,66.95,75.88
60762.0,66.94,75.91
60869.0,66.97,75.86
60976.0,66.98,75.83
61083.0,66.97,75.86
61190.0,66.95,75.88
61297.0,66.91,75.95
61404.0,66.91,75.95
61511.0,66.88,75.99
61618.0,66.87,76.01
61725.0,66.86,76.04
61832.0,66.87,76.01
61939.0,66.88,76.01
62046.0,66.89,75.98
62153.0,66.91,75.95
62260.0,66.91,75.95
62367.0,66.96,75.88
62474.0,66.99,75.83
62581.0,67.02,75.78
62688.0,67.05,75.73
62795.0,67.07,75.69
62902.0,67.07,75.69
63009.0,67.09,75.67
63116.0,67.1,75.64
63223.0,67.1,75.65
63330.0,67.08,75.67
63437.0,67.05,75.72
