Time (ms),Distance (mm),Brake Position (%)
0.0,59.42,88.03
107.0,59.57,87.8
214.0,59.7,87.57
321.0,59.84,87.35
428.0,59.95,87.18
535.0,60.05,87.01
642.0,60.14,86.87
749.0,60.23,86.73
856.0,60.34,86.55
963.0,60.41,86.44
1070.0,60.51,86.28
1177.0,60.66,86.03
1284.0,60.79,85.83
1391.0,60.92,85.61
1498.0,61.06,85.39
1605.0,61.14,85.25
1712.0,61.23,85.11
1819.0,61.35,84.93
1926.0,61.41,84.82
2033.0,61.48,84.71
2140.0,61.59,84.53
2247.0,61.69,84.37
2354.0,61.77,84.25
2461.0,61.89,84.05
2568.0,61.96,83.93
2675.0,62.07,83.76
2782.0,62.13,83.67
2889.0,62.2,83.55
2996.0,62.27,83.44
3103.0,62.35,83.3
3210.0,62.42,83.19
3317.0,62.52,83.03
3424.0,62.57,82.95
3531.0,62.62,82.87
3638.0,62.67,82.79
3745.0,62.69,82.76
3852.0,62.74,82.68
3959.0,62.77,82.62
4066.0,62.84,82.52
4173.0,62.84,82.52
4280.0,62.88,82.44
4387.0,62.9,82.42
4494.0,62.95,82.34
4601.0,63.07,82.15
4708.0,63.09,82.11
4815.0,63.17,81.99
4922.0,63.25,81.85
5029.0,63.32,81.74
5136.0,63.36,81.67
5243.0,63.4,81.61
5350.0,63.5,81.45
5457.0,63.52,81.42
5564.0,63.6,81.29
5671.0,63.68,81.16
5778.0,63.7,81.13
5885.0,63.78,81.0
5992.0,63.83,80.92
6099.0,63.9,80.8
6206.0,63.92,80.77
6313.0,63.97,80.7
6420.0,64.04,80.58
6527.0,64.07,80.53
6634.0,64.08,80.51
6741.0,64.08,80.51
6848.0,64.11,80.47
6955.0,64.2,80.33
7062.0,64.24,80.26
7169.0,64.23,80.27
7276.0,64.26,80.22
7383.0,64.3,80.16
7490.0,64.34,80.09
7597.0,64.38,80.03
7704.0,64.42,79.97
7811.0,64.46,79.91
7918.0,64.51,79.82
8025.0,64.55,79.76
8132.0,64.55,79.75
8239.0,64.62,79.65
8346.0,64.67,79.57
8453.0,64.76,79.42
8560.0,64.83,79.31
8667.0,64.87,79.24
8774.0,64.87,79.24
8881.0,64.89,79.21
8988.0,64.94,79.13
9095.0,64.97,79.09
9202.0,64.98,79.06
9309.0,65.01,79.01
9416.0,65.06,78.94
9523.0,65.07,78.92
9630.0,65.11,78.85
9737.0,65.22,78.68
9844.0,65.3,78.55
9951.0,65.31,78.53
10058.0,65.32,78.51
10165.0,65.36,78.45
10272.0,65.39,78.41
10379.0,65.41,78.37
10486.0,65.39,78.41
10593.0,65.38,78.42
10700.0,65.41,78.38
10807.0,65.44,78.31
10914.0,65.5,78.23
11021.0,65.5,78.22
11128.0,65.51,78.21
11235.0,65.56,78.12
11342.0,65.61,78.04
11449.0,65.62,78.03
11556.0,65.61,78.05
11663.0,65.62,78.04
11770.0,65.62,78.03
11877.0,65.66,77.97
11984.0,65.69,77.92
12091.0,65.73,77.86
12198.0,65.76,77.81
12305.0,65.75,77.82
12412.0,65.78,77.77
12519.0,65.84,77.67
12626.0,65.86,77.64
12733.0,65.86,77.64
12840.0,65.91,77.57
12947.0,66.0,77.42
13054.0,65.97,77.47
13161.0,66.03,77.37
13268.0,66.04,77.35
13375.0,66.04,77.35
13482.0,66.1,77.26
13589.0,66.09,77.28
13696.0,66.11,77.24
13803.0,66.11,77.24
13910.0,66.14,77.19
14017.0,66.2,77.1
14124.0,66.22,77.06
14231.0,66.25,77.02
14338.0,66.26,77.0
14445.0,66.3,76.93
14552.0,66.3,76.94
14659.0,66.32,76.9
14766.0,66.32,76.91
14873.0,66.3,76.94
14980.0,66.29,76.95
15087.0,66.32,76.91
15194.0,66.33,76.89
15301.0,66.29,76.94
15408.0,66.32,76.9
15515.0,66.34,76.86
15622.0,66.35,76.85
15729.0,66.38,76.81
15836.0,66.4,76.77
15943.0,66.38,76.8
16050.0,66.38,76.81
16157.0,66.41,76.75
16264.0,66.36,76.83
16371.0,66.37,76.82
16478.0,66.35,76.85
16585.0,66.38,76.81
16692.0,66.33,76.89
16799.0,66.34,76.87
16906.0,66.35,76.86
17013.0,66.3,76.94
17120.0,66.29,76.95
17227.0,66.33,76.88
17334.0,66.34,76.87
17441.0,66.32,76.9
17548.0,66.29,76.95
17655.0,66.29,76.96
17762.0,66.25,77.01
17869.0,66.23,77.04
17976.0,66.23,77.05
18083.0,66.29,76.96
18190.0,66.28,76.97
18297.0,66.31,76.93
18404.0,66.32,76.91
18511.0,66.33,76.89
18618.0,66.35,76.85
18725.0,66.35,76.86
18832.0,66.33,76.89
18939.0,66.37,76.83
19046.0,66.39,76.79
19153.0,66.37,76.82
19260.0,66.44,76.71
19367.0,66.43,76.72
19474.0,66.44,76.71
19581.0,66.49,76.63
19688.0,66.5,76.61
19795.0,66.51,76.6
19902.0,66.5,76.61
20009.0,66.52,76.58
20116.0,66.53,76.57
20223.0,66.51,76.6
20330.0,66.54,76.54
20437.0,66.55,76.53
20544.0,66.53,76.57
20651.0,66.49,76.63
20758.0,66.51,76.59
20865.0,66.46,76.68
20972.0,66.47,76.66
21079.0,66.45,76.7
21186.0,66.45,76.69
21293.0,66.42,76.74
21400.0,66.4,76.78
21507.0,66.38,76.81
21614.0,66.39,76.8
21721.0,66.38,76.81
21828.0,66.4,76.77
21935.0,66.41,76.75
22042.0,66.42,76.74
22149.0,66.43,76.73
22256.0,66.44,76.71
22363.0,66.43,76.72
22470.0,66.41,76.76
22577.0,66.33,76.89
22684.0,66.33,76.89
22791.0,66.34,76.88
22898.0,66.33,76.89
23005.0,66.36,76.85
23112.0,66.41,76.76
23219.0,66.36,76.84
23326.0,66.44,76.71
23433.0,66.5,76.62
23540.0,66.59,76.47
23647.0,66.61,76.43
23754.0,66.6,76.45
23861.0,66.64,76.39
23968.0,66.61,76.43
24075.0,66.66,76.35
24182.0,66.71,76.27
24289.0,66.67,76.33
24396.0,66.68,76.33
24503.0,66.7,76.29
24610.0,66.69,76.31
24717.0,66.74,76.23
24824.0,66.73,76.25
24931.0,66.7,76.29
25038.0,66.7,76.28
25145.0,66.75,76.2
25252.0,66.8,76.13
25359.0,66.79,76.15
25466.0,66.78,76.16
25573.0,66.78,76.16
25680.0,66.75,76.2
25787.0,66.76,76.2
25894.0,66.76,76.19
26001.0,66.69,76.3
26108.0,66.65,76.37
26215.0,66.66,76.36
26322.0,66.68,76.33
26429.0,66.71,76.27
26536.0,66.7,76.29
26643.0,66.71,76.28
26750.0,66.68,76.32
26857.0,66.7,76.29
26964.0,66.72,76.26
27071.0,66.69,76.3
27178.0,66.68,76.32
27285.0,66.72,76.26
27392.0,66.72,76.26
27499.0,66.73,76.25
27606.0,66.71,76.27
27713.0,66.69,76.31
27820.0,66.66,76.35
27927.0,66.64,76.39
28034.0,66.65,76.38
28141.0,66.64,76.39
28248.0,66.64,76.39
28355.0,66.65,76.38
28462.0,66.59,76.46
28569.0,66.54,76.55
28676.0,66.52,76.59
28783.0,66.55,76.53
28890.0,66.6,76.44
28997.0,66.6,76.46
29104.0,66.59,76.47
29211.0,66.59,76.46
29318.0,66.61,76.43
29425.0,66.59,76.47
29532.0,66.58,76.48
29639.0,66.59,76.47
29746.0,66.58,76.49
29853.0,66.58,76.48
29960.0,66.61,76.44
30067.0,66.64,76.39
30174.0,66.65,76.38
30281.0,66.62,76.42
30388.0,66.6,76.45
30495.0,66.56,76.52
30602.0,66.51,76.6
30709.0,66.5,76.61
30816.0,66.51,76.6
30923.0,66.57,76.49
31030.0,66.54,76.56
31137.0,66.53,76.57
31244.0,66.49,76.63
31351.0,66.51,76.59
31458.0,66.52,76.58
31565.0,66.51,76.59
31672.0,66.55,76.53
31779.0,66.48,76.64
31886.0,66.49,76.63
31993.0,66.56,76.52
32100.0,66.5,76.61
32207.0,66.5,76.62
32314.0,66.47,76.66
32421.0,66.51,76.6
32528.0,66.5,76.61
32635.0,66.48,76.64
32742.0,66.47,76.65
32849.0,66.47,76.67
32956.0,66.49,76.63
33063.0,66.48,76.64
33170.0,66.5,76.61
33277.0,66.53,76.57
33384.0,66.55,76.53
33491.0,66.53,76.57
33598.0,66.55,76.54
33705.0,66.57,76.5
33812.0,66.63,76.4
33919.0,66.67,76.34
34026.0,66.64,76.38
34133.0,66.61,76.44
34240.0,66.6,76.46
34347.0,66.59,76.47
34454.0,66.51,76.6
34561.0,66.51,76.59
34668.0,66.55,76.53
34775.0,66.51,76.59
34882.0,66.49,76.63
34989.0,66.47,76.67
35096.0,66.46,76.68
35203.0,66.45,76.69
35310.0,66.4,76.77
35417.0,66.38,76.8
35524.0,66.38,76.81
35631.0,66.34,76.87
35738.0,66.4,76.78
35845.0,66.42,76.74
35952.0,66.44,76.71
36059.0,66.48,76.64
36166.0,66.49,76.63
36273.0,66.51,76.6
36380.0,66.52,76.58
36487.0,66.57,76.5
36594.0,66.55,76.54
36701.0,66.55,76.53
36808.0,66.56,76.52
36915.0,66.6,76.46
37022.0,66.57,76.5
37129.0,66.53,76.56
37236.0,66.54,76.55
37343.0,66.58,76.49
37450.0,66.6,76.46
37557.0,66.57,76.49
37664.0,66.6,76.46
37771.0,66.6,76.45
37878.0,66.56,76.51
37985.0,66.58,76.48
38092.0,66.6,76.44
38199.0,66.63,76.41
38306.0,66.59,76.47
38413.0,66.61,76.44
38520.0,66.61,76.43
38627.0,66.59,76.47
38734.0,66.63,76.41
38841.0,66.66,76.35
38948.0,66.64,76.39
39055.0,66.6,76.46
39162.0,66.63,76.4
39269.0,66.62,76.41
39376.0,66.64,76.38
39483.0,66.62,76.42
39590.0,66.62,76.41
39697.0,66.6,76.45
39804.0,66.64,76.39
39911.0,66.66,76.36
40018.0,66.66,76.35
40125.0,66.67,76.34
40232.0,66.67,76.34
40339.0,66.65,76.38
40446.0,66.61,76.44
40553.0,66.63,76.41
40660.0,66.65,76.37
40767.0,66.67,76.34
40874.0,66.64,76.38
40981.0,66.62,76.42
41088.0,66.68,76.32
41195.0,66.67,76.33
41302.0,66.69,76.3
41409.0,66.71,76.27
41516.0,66.67,76.33
41623.0,66.66,76.35
41730.0,66.71,76.27
41837.0,66.7,76.29
41944.0,66.71,76.28
42051.0,66.73,76.25
42158.0,66.74,76.22
42265.0,66.76,76.19
42372.0,66.8,76.14
42479.0,66.8,76.13
42586.0,66.82,76.1
42693.0,66.85,76.05
42800.0,66.9,75.98
42907.0,66.93,75.93
43014.0,66.94,75.9
43121.0,66.94,75.9
43228.0,66.93,75.92
43335.0,66.95,75.9
43442.0,66.92,75.94
43549.0,66.93,75.92
43656.0,66.9,75.96
43763.0,66.92,75.94
43870.0,66.95,75.89
43977.0,66.97,75.86
44084.0,66.94,75.91
44191.0,66.92,75.93
44298.0,66.95,75.88
44405.0,66.95,75.88
44512.0,66.98,75.83
44619.0,66.96,75.88
44726.0,66.91,75.95
44833.0,66.94,75.9
44940.0,66.88,75.99
45047.0,66.87,76.01
45154.0,66.87,76.01
45261.0,66.88,76.01
45368.0,66.94,75.91
45475.0,66.95,75.88
45582.0,66.94,75.91
45689.0,66.97,75.86
45796.0,66.98,75.83
45903.0,66.97,75.86
46010.0,66.95,75.88
46117.0,66.91,75.95
46224.0,66.91,75.95
46331.0,66.88,75.99
46438.0,66.87,76.01
46545.0,66.86,76.04
46652.0,66.87,76.01
46759.0,66.88,76.01
46866.0,66.89,75.98
46973.0,66.91,75.95
47080.0,66.91,75.95
47187.0,66.96,75.88
47294.0,66.99,75.83
47401.0,67.02,75.78
47508.0,67.05,75.73
47615.0,67.07,75.69
47722.0,67.07,75.69
47829.0,67.09,75.67
47936.0,67.1,75.64
48043.0,67.1,75.65
48150.0,67.08,75.67
48257.0,67.05,75.72
